 energy for orbital 1s     -617.89885862899450       Ryd
 normalization factor for orbital  1s    =  0.99488687936750020     
   4.4074832901305200E-006   454.85071293895305     
   4.4969508608862509E-006   452.31139164532561     
   4.5882345310635533E-006   449.82248219412458     
   4.6813711654369666E-006   447.38297942928250     
   4.7763983770874206E-006   444.99189814782187     
   4.8733545425916418E-006   442.64827270197691     
   4.9722788175198033E-006   440.35115660921110     
   5.0732111522476993E-006   438.09962216997928     
   5.1761923080899644E-006   435.89276009306980     
   5.2812638737606884E-006   433.72967912838493     
   5.3884682821681294E-006   431.60950570700652     
   5.4978488275503532E-006   429.53138358840022     
   5.6094496829586529E-006   427.49447351462078     
   5.7233159180959123E-006   425.49795287137289     
   5.8394935175168839E-006   423.54101535579673     
   5.9580293991979889E-006   421.62287065083842     
   6.0789714334840732E-006   419.74274410607762     
   6.2023684624196509E-006   417.89987642488097     
   6.3282703194724738E-006   416.09352335775890     
   6.4567278496575551E-006   414.32295540179666     
   6.5877929300695925E-006   412.58745750604072     
   6.7215184908320954E-006   410.88632878272426     
   6.8579585364717615E-006   409.21888222420995     
   6.9971681677267296E-006   407.58444442553906     
   7.1392036037973619E-006   405.98235531247474     
   7.2841222050487097E-006   404.41196787492868     
   7.4319824961738037E-006   402.87264790566240     
   7.5828441898270164E-006   401.36377374416128     
   7.7367682107371074E-006   399.88473602557400     
   7.8938167203097534E-006   398.43493743461835     
   8.0540531417293130E-006   397.01379246435300     
   8.2175421855701723E-006   395.62072717971859     
   8.3843498759278696E-006   394.25517898575100     
   8.5545435770805757E-006   392.91659640037602     
   8.7281920206917142E-006   391.60443883169103     
   8.9053653335646752E-006   390.31817635964467     
   9.0861350659609459E-006   389.05728952202657     
   9.2705742204928655E-006   387.82126910468031     
   9.4587572816027820E-006   386.60961593585643     
   9.6507602456406979E-006   385.42184068461836     
   9.8466606515521162E-006   384.25746366322608     
   1.0046537612189062E-005   383.11601463341032     
   1.0250471846256149E-005   381.99703261646710     
   1.0458545710905423E-005   380.90006570708852     
   1.0670843234992548E-005   379.82467089085935     
   1.0887450153007896E-005   378.77041386534421     
   1.1108453939696522E-005   377.73686886469295     
   1.1333943845380473E-005   376.72361848769287     
   1.1564010931998240E-005   375.73025352920070     
   1.1798748109875485E-005   374.75637281488304     
   1.2038250175242094E-005   373.80158303920041     
   1.2282613848510634E-005   372.86549860657021     
   1.2531937813331785E-005   371.94774147564141     
   1.2786322756442118E-005   371.04794100662286     
   1.3045871408321018E-005   370.16573381159714     
   1.3310688584672357E-005   369.30076360776644     
   1.3580881228748143E-005   368.45268107356623     
   1.3856558454531261E-005   367.62114370759036     
   1.4137831590794469E-005   366.80581569027049     
   1.4424814226053423E-005   366.00636774825506     
   1.4717622254432298E-005   365.22247702143028     
   1.5016373922460113E-005   364.45382693253237     
   1.5321189876816514E-005   363.70010705929707     
   1.5632193213046889E-005   362.96101300909396     
   1.5949509525265912E-005   362.23624629599743     
   1.6273266956869752E-005   361.52551422024135     
   1.6603596252277613E-005   360.82852975001191     
   1.6940630809723067E-005   360.14501140552881     
   1.7284506735116883E-005   359.47468314536900     
   1.7635362897002809E-005   358.81727425498644     
   1.7993340982628877E-005   358.17251923738297     
   1.8358585555156083E-005   357.54015770588751     
   1.8731244112028569E-005   356.91993427899740     
   1.9111467144527949E-005   356.31159847724217     
   1.9499408198536320E-005   355.71490462202706     
   1.9895223936532243E-005   355.12961173641497     
   2.0299074200844955E-005   354.55548344780721     
   2.0711122078191904E-005   353.99228789248451     
   2.1131533965526388E-005   353.43979762196756     
   2.1560479637220715E-005   352.89778951116239     
   2.1998132313613423E-005   352.36604466825037     
   2.2444668730946809E-005   351.84434834628843     
   2.2900269212723976E-005   351.33248985648379     
   2.3365117742513900E-005   350.83026248310597     
   2.3839402038233613E-005   350.33746340000550     
   2.4323313627937735E-005   349.85389358870191     
   2.4817047927146135E-005   349.37935775800975     
   2.5320804317740274E-005   348.91366426517061     
   2.5834786228460639E-005   348.45662503845796     
   2.6359201217037718E-005   348.00805550122413     
   2.6894261053989115E-005   347.56777449735949     
   2.7440181808117082E-005   347.13560421813236     
   2.7997183933741207E-005   346.71137013038111     
   2.8565492359700443E-005   346.29490090602928     
   2.9145336580161308E-005   345.88602835289464     
   2.9736950747268756E-005   345.48458734676547     
   3.0340573765676620E-005   345.09041576471503     
   3.0956449388996108E-005   344.70335441962885     
   3.1584826318201100E-005   344.32324699591766     
   3.2225958302030236E-005   343.94993998638927     
   3.2880104239426061E-005   343.58328263025550     
   3.3547528284051699E-005   343.22312685224853     
   3.4228499950929612E-005   342.86932720282033     
   3.4923294225242224E-005   342.52174079940448     
   3.5632191673340970E-005   342.18022726871351     
   3.6355478556006820E-005   341.84464869005001     
   3.7093446944009497E-005   341.51486953960801     
   3.7846394836009668E-005   341.19075663574341     
   3.8614626278854562E-005   340.87217908518875     
   3.9398451490312894E-005   340.55900823019385     
   4.0198186984300097E-005   340.25111759656806     
   4.1014155698644106E-005   339.94838284260527     
   4.1846687125442657E-005   339.65068170886980     
   4.2696117444065079E-005   339.35789396882336     
   4.3562789656852454E-005   339.06990138027317     
   4.4447053727569719E-005   338.78658763762144     
   4.5349266722667372E-005   338.50783832489714     
   4.6269792955407479E-005   338.23354086955078     
   4.7209004132914268E-005   337.96358449699443     
   4.8167279506206769E-005   337.69786018586677     
   4.9145006023274738E-005   337.43626062400728     
   5.0142578485260015E-005   337.17868016512080     
   5.1160399705805656E-005   336.92501478611416     
   5.2198880673636139E-005   336.67516204508900     
   5.3258440718436772E-005   336.42902103997369     
   5.4339507680096248E-005   336.18649236777628     
   5.5442518081381895E-005   335.94747808444390     
   5.6567917304117968E-005   335.71188166531084     
   5.7716159768935638E-005   335.47960796612023     
   5.8887709118670183E-005   335.25056318460366     
   6.0083038405475578E-005   335.02465482260220     
   6.1302630281735525E-005   334.80179164871515     
   6.2546977194845272E-005   334.58188366145970     
   6.3816581585943318E-005   334.36484205292788     
   6.5111956092673938E-005   334.15057917292603     
   6.6433623756060629E-005   333.93900849358124     
   6.7782118231574849E-005   333.73004457440180     
   6.9157984004485372E-005   333.52360302777697     
   7.0561776609572919E-005   333.31960048490174     
   7.1994062855301736E-005   333.11795456211382     
   7.3455421052534520E-005   332.91858382762859     
   7.4946441247886628E-005   332.72140776865803     
   7.6467725461810415E-005   332.52634675890221     
   7.8019887931507115E-005   332.33332202639804     
   7.9603555358763591E-005   332.14225562171373     
   8.1219367162814281E-005   331.95307038647570     
   8.2867975738327881E-005   331.76568992221553     
   8.4550046718626860E-005   331.58003855952325     
   8.6266259244239889E-005   331.39604132749628     
   8.8017306236900714E-005   331.21362392347055     
   8.9803894679101211E-005   331.03271268302120     
   9.1626745899308945E-005   330.85323455022262     
   9.3486595862969188E-005   330.67511704815325     
   9.5384195469403244E-005   330.49828824963578     
   9.7320310854725529E-005   330.32267674819894     
   9.9295723700900358E-005   330.14821162925017     
   1.0131123155106132E-004   329.97482244144760     
   1.0336764813122350E-004   329.80243916825992     
   1.0546580367851394E-004   329.63099219970104     
   1.0760654527605459E-004   329.46041230423066     
   1.0979073719463114E-004   329.29063060080807     
   1.1201926124128666E-004   329.12157853108693     
   1.1429301711497785E-004   328.95318783174264     
   1.1661292276943907E-004   328.78539050691779     
   1.1897991478339793E-004   328.61811880077715     
   1.2139494873829242E-004   328.45130517016037     
   1.2385899960364052E-004   328.28488225732019     
   1.2637306213021822E-004   328.11878286273765     
   1.2893815125120217E-004   327.95293991800037     
   1.3155530249143912E-004   327.78728645873582     
   1.3422557238500685E-004   327.62175559758646     
   1.3695003890123151E-004   327.45628049721756     
   1.3972980187933662E-004   327.29079434334494     
   1.4256598347189573E-004   327.12523031777425     
   1.4545972859726357E-004   326.95952157143853     
   1.4841220540117459E-004   326.79360119742438     
   1.5142460572768908E-004   326.62740220397643     
   1.5449814559967268E-004   326.46085748746754     
   1.5763406570901055E-004   326.29389980532585     
   1.6083363191674680E-004   326.12637055766345     
   1.6409813576334867E-004   325.95838387241270     
   1.6742889498930441E-004   325.78988280066534     
   1.7082725406626054E-004   325.62080907296985     
   1.7429458473891326E-004   325.45126530756721     
   1.7783228657786748E-004   325.28109029038251     
   1.8144178754368878E-004   325.11040352766037     
   1.8512454456237474E-004   324.93913880751586     
   1.8888204411247016E-004   324.76724650981640     
   1.9271580282406768E-004   324.59482150657692     
   1.9662736808993096E-004   324.42169990732202     
   2.0061831868898675E-004   324.24800635356803     
   2.0469026542242749E-004   324.07366542664579     
   2.0884485176269466E-004   323.89863585410490     
   2.1308375451558389E-004   323.72300476192021     
   2.1740868449575339E-004   323.54660550960165     
   2.2182138721589233E-004   323.36956761949500     
   2.2632364358983231E-004   323.19180649887210     
   2.3091727064988480E-004   323.01328891770203     
   2.3560412227867977E-004   322.83409425540452     
   2.4038608995581524E-004   322.65405302706131     
   2.4526510351959626E-004   322.47329938599330     
   2.5024313194418787E-004   322.29173957939076     
   2.5532218413247158E-004   322.10934810954183     
   2.6050430972494171E-004   321.92619659400941     
   2.6579159992494943E-004   321.74211258787165     
   2.7118618834063050E-004   321.55723462764894     
   2.7669025184385063E-004   321.37145979118753     
   2.8230601144651498E-004   321.18476999918090     
   2.8803573319458335E-004   320.99722907957658     
   2.9388172908015472E-004   320.80866148812373     
   2.9984635797197947E-004   320.61920990065732     
   3.0593202656477357E-004   320.42876219007638     
   3.1214119034771290E-004   320.23730737869658     
   3.1847635459248742E-004   320.04490146347467     
   3.2494007536131557E-004   319.85136563482138     
   3.3153496053531695E-004   319.65684647022738     
   3.3826367086365033E-004   319.46122257207833     
   3.4512892103383817E-004   319.26448974602943     
   3.5213348076370096E-004   319.06669610182018     
   3.5928017591533418E-004   318.86765936849753     
   3.6657188963157278E-004   318.66752979676727     
   3.7401156349539211E-004   318.46617661875274     
   3.8160219871270735E-004   318.26360210557482     
   3.8934685731904024E-004   318.05984640731884     
   3.9724866341053251E-004   317.85472356182174     
   4.0531080439978965E-004   317.64838727760832     
   4.1353653229706205E-004   317.44069727768198     
   4.2192916501725976E-004   317.23166198374628     
   4.3049208771332872E-004   317.02131349608737     
   4.3922875413650932E-004   316.80946189332587     
   4.4814268802401911E-004   316.59626414429454     
   4.5723748451470861E-004   316.38157027915037     
   4.6651681159324627E-004   316.16539456171716     
   4.7598441156341121E-004   315.94776093297526     
   4.8564410255106402E-004   315.72847520119979     
   4.9549978003740245E-004   315.50769742199878     
   5.0555541842309563E-004   315.28526769733878     
   5.1581507262392422E-004   315.06120583560482     
   5.2628287969854338E-004   314.83552457778006     
   5.3696306050902368E-004   314.60803383184850     
   5.4785992141481309E-004   314.37888786827307     
   5.5897785600079661E-004   314.14791947594614     
   5.7032134684012210E-004   313.91515372694784     
   5.8189496729249589E-004   313.68059093367634     
   5.9370338333865271E-004   313.44404791260689     
   6.0575135545171371E-004   313.20566982417887     
   6.1804374050618120E-004   312.96528285517297     
   6.3058549372530242E-004   312.72291708458999     
   6.4338167066758250E-004   312.47856024184631     
   6.5643742925320975E-004   312.23203549893003     
   6.6975803183120229E-004   311.98347893319118     
   6.8334884728807430E-004   311.73270966083049     
   6.9721535319885162E-004   311.47976254446263     
   7.1136313802127183E-004   311.22461252834603     
   7.2579790333404117E-004   310.96708857505706     
   7.4052546612000177E-004   310.70731771370248     
   7.5555176109511448E-004   310.44511144860297     
   7.7088284308416397E-004   310.18050924793613     
   7.8652488944410174E-004   309.91347301338919     
   8.0248420253598647E-004   309.64383692538024     
   8.1876721224646615E-004   309.37171901135383     
   8.3538047855979871E-004   309.09692253913573     
   8.5233069418139194E-004   308.81949146439376     
   8.6962468721390443E-004   308.53937432477483     
   8.8726942388692111E-004   308.25640994371844     
   9.0527201134127562E-004   307.97070741002477     
   9.2363970046909502E-004   307.68206103497005     
   9.4237988881066344E-004   307.39051922188656     
   9.6150012350922456E-004   307.09601674842878     
   9.8100810432486256E-004   306.79839651192810     
   1.0009116867086298E-003   306.49775874774946     
   1.0212188849380984E-003   306.19388798109503     
   1.0419378753155437E-003   305.88683712392401     
   1.0630769994300021E-003   305.57652671114266     
   1.0846447674844361E-003   305.26280316077975     
   1.1066498616892977E-003   304.94575796917138     
   1.1291011397237905E-003   304.62516492022843     
   1.1520076382661529E-003   304.30108162393844     
   1.1753785765943078E-003   303.97341378836586     
   1.1992233602582676E-003   303.64201082823644     
   1.2235515848256909E-003   303.30695565296622     
   1.2483730397020009E-003   302.96801020551595     
   1.2736977120265669E-003   302.62523714547189     
   1.2995357906463623E-003   302.27852665152670     
   1.3258976701686809E-003   301.92773065718131     
   1.3527939550943933E-003   301.57292368503670     
   1.3802354640333368E-003   301.21385457136034     
   1.4082332340034350E-003   300.85059157999871     
   1.4367985248151477E-003   300.48300851925245     
   1.4659428235429335E-003   300.11095943075560     
   1.4956778490854037E-003   299.73451071082764     
   1.5260155568158538E-003   299.35339663227791     
   1.5569681433249705E-003   298.96769187032152     
   1.5885480512574457E-003   298.57725285995190     
   1.6207679742443466E-003   298.18193543383870     
   1.6536408619330456E-003   297.78179819798692     
   1.6871799251166313E-003   297.37655918528412     
   1.7213986409646829E-003   296.96630060104803     
   1.7563107583573601E-003   296.55086031498854     
   1.7919303033247906E-003   296.13009575939429     
   1.8282715845937862E-003   295.70405817944498     
   1.8653491992439107E-003   295.27244743906834     
   1.9031780384750074E-003   294.83535477454785     
   1.9417732934883256E-003   294.39259807797339     
   1.9811504614833720E-003   293.94403635433144     
   2.0213253517727295E-003   293.48971403280376     
   2.0623140920170515E-003   293.02931058919125     
   2.1041331345825441E-003   292.56292825714769     
   2.1467992630232273E-003   292.09036328271526     
   2.1903295986903429E-003   291.61147642741901     
   2.2347416074713290E-003   291.12630599093325     
   2.2800531066607893E-003   290.63450850893122     
   2.3262822719659197E-003   290.13619974232131     
   2.3734476446489821E-003   289.63115232625125     
   2.4215681388093224E-003   289.11922922774659     
   2.4706630488076043E-003   288.60046347693793     
   2.5207520568348825E-003   288.07448573624748     
   2.5718552406292544E-003   287.54142850120900     
   2.6239930813427739E-003   287.00103848995593     
   2.6771864715615309E-003   286.45318165194783     
   2.7314567234815990E-003   285.89788681970572     
   2.7868255772438826E-003   285.33475541393426     
   2.8433152094306862E-003   284.76394068105975     
   2.9009482417270489E-003   284.18516072586294     
   2.9597477497498629E-003   283.59828565644847     
   3.0197372720478692E-003   283.00334143832737     
   3.0809408192756173E-003   282.39989638631954     
   3.1433828835446469E-003   281.78812947264532     
   3.2070884479550427E-003   281.16772705010504     
   3.2720829963107140E-003   280.53856504000657     
   3.3383925230216693E-003   279.90066818688712     
   3.4060435431967446E-003   279.25356727335168     
   3.4750631029301484E-003   278.59747309924546     
   3.5454787897853902E-003   277.93203663101872     
   3.6173187434800501E-003   277.25714182123164     
   3.6906116667751059E-003   276.57281422411228     
   3.7653868365723430E-003   275.87854202938348     
   3.8416741152236407E-003   275.17457527927166     
   3.9195039620558737E-003   274.46052537175467     
   3.9989074451152332E-003   273.73628716029430     
   4.0799162531348380E-003   273.00188950864106     
   4.1625627077296178E-003   272.25677224165565     
   4.2468797758223433E-003   271.50123357286509     
   4.3329010823049694E-003   270.73484055563210     
   4.4206609229392770E-003   269.95750255156685     
   4.5101942775010494E-003   269.16925480644630     
   4.6015368231719167E-003   268.36948221684958     
   4.6947249481832298E-003   267.55854182242405     
   4.7897957657161540E-003   266.73595092751879     
   4.8867871280624878E-003   265.90163782285651     
   4.9857376410505664E-003   265.05564790836570     
   5.0866866787407520E-003   264.19730371686961     
   5.1896743983950635E-003   263.32703370920603     
   5.2947417557255832E-003   262.44429939472877     
   5.4019305204262100E-003   261.54905328292631     
   5.5112832919925608E-003   260.64135555545101     
   5.6228435158347462E-003   259.72045799679705     
   5.7366554996878703E-003   258.78687522914311     
   5.8527644303250515E-003   257.84000629908923     
   5.9712163905780505E-003   256.87983411122576     
   6.0920583766702939E-003   255.90643930322182     
   6.2153383158675057E-003   254.91899350996954     
   6.3411050844509216E-003   253.91811457785812     
   6.4694085260182683E-003   252.90313187054520     
   6.6002994701177004E-003   251.87406571025886     
   6.7338297512198574E-003   250.83102414614245     
   6.8700522280334617E-003   249.77308819565326     
   7.0090208031696587E-003   248.70099844065069     
   7.1507904431605237E-003   247.61400692964264     
   7.2954171988371640E-003   246.51217914387288     
   7.4429582260728310E-003   245.39565906708467     
   7.5934718068966242E-003   244.26342554414879     
   7.7470173709831974E-003   243.11636389214709     
   7.9036555175241736E-003   241.95364103927659     
